SiO2
# 1 - Si, 2 - O  !   2.03.86
Дата и время - 04.07.2013 17:00:57. Длит. расчетов,сек= 0
I(S)
121 30 30 1 0
  1.0000     41048.6250
  1.0500     40052.8438
  1.1000     50578.5469
  1.1500     98675.6719
  1.2000    112315.6406
  1.2500    176273.0625
  1.3000    236396.4063
  1.3500    300116.0625
  1.4000    926603.2500
  1.4500   1906768.8750
  1.5000   1934990.8750
  1.5500    956876.8750
  1.6000    250091.1719
  1.6500    142158.2188
  1.7000    116123.4609
  1.7500     60545.4844
  1.8000     49101.3438
  1.8500     42146.1250
  1.9000     41809.2344
  1.9500     41501.8906
  2.0000     28470.6563
  2.0500     23348.8125
  2.1000     27384.0000
  2.1500     36007.0156
  2.2000     43214.9688
  2.2500     34881.7969
  2.3000     83883.0859
  2.3500    297684.0313
  2.4000    518934.7500
  2.4500    458215.8750
  2.5000    204100.6563
  2.5500     55233.0859
  2.6000     38101.3906
  2.6500     38363.4063
  2.7000     37439.0859
  2.7500     43235.5234
  2.8000     48937.0625
  2.8500     81742.3828
  2.9000    169925.9375
  2.9500    235792.4063
  3.0000    183036.2344
  3.0500     77293.2266
  3.1000     27185.0078
  3.1500     21907.2422
  3.2000     18518.7500
  3.2500     15224.2813
  3.3000     15533.5156
  3.3500     17318.7891
  3.4000     18390.0625
  3.4500     20015.8906
  3.5000     27270.2969
  3.5500     31414.0625
  3.6000     67873.3359
  3.6500    224006.6094
  3.7000    412642.3438
  3.7500    399617.3750
  3.8000    205247.3125
  3.8500     62745.8906
  3.9000     32621.2344
  3.9500     32119.1797
  4.0000     28042.2344
  4.0500     39062.1250
  4.1000    104917.6406
  4.1500    202481.0938
  4.2000    219213.6875
  4.2500    130734.4531
  4.3000     48272.2461
  4.3500     30469.7031
  4.4000     35832.9961
  4.4500     35753.8047
  4.5000     32381.2109
  4.5500     25224.0156
  4.6000     17994.7969
  4.6500     16016.0156
  4.7000     33858.2422
  4.7500    111752.0000
  4.8000    227300.7188
  4.8500    249146.6094
  4.9000    153702.7500
  4.9500    120183.4375
  5.0000    231321.7813
  5.0500    318312.9688
  5.1000    242999.1719
  5.1500    104456.1797
  5.2000     35340.1016
  5.2500     26258.5781
  5.3000     44766.6641
  5.3500     87335.3672
  5.4000    112379.6328
  5.4500     86611.6875
  5.5000     42924.5352
  5.5500     30293.1367
  5.6000     50037.3633
  5.6500     64390.0820
  5.7000     51271.6172
  5.7500     26928.1094
  5.8000     14326.9531
  5.8500     14878.7305
  5.9000     16076.5859
  5.9500     16838.3945
  6.0000     48035.6211
  6.0500    121320.6094
  6.1000    165225.3125
  6.1500    124050.3984
  6.2000     53972.5820
  6.2500     24653.5039
  6.3000     48797.4141
  6.3500    101881.8594
  6.4000    122813.8906
  6.4500     84601.0703
  6.5000     42031.9258
  6.5500     32542.4180
  6.6000     30644.2734
  6.6500     18829.6328
  6.7000     11211.7305
  6.7500     19939.2070
  6.8000     35923.6055
  6.8500     41100.4023
  6.9000     39842.7773
  6.9500     48030.0352
  7.0000     53380.0352
