SiO2
# 1 - Si, 2 - O  !   2.03.86
Дата и время - 04.07.2013 17:00:57. Длит. расчетов,сек= 0
D(r)
101 15 15 1 0
   0.000          0.000
   0.100      -7005.800
   0.200     -10540.744
   0.300     -10599.080
   0.400     -11877.919
   0.500     -21742.906
   0.600     -45663.465
   0.700     -82369.578
   0.800    -121440.539
   0.900    -145154.844
   1.000    -134539.906
   1.100     -77512.086
   1.200      24270.934
   1.300     153049.172
   1.400     278673.781
   1.500     367539.250
   1.600     393646.750
   1.700     347666.344
   1.800     240489.297
   1.900      99841.375
   2.000     -38798.980
   2.100    -143558.703
   2.200    -195612.391
   2.300    -193453.797
   2.400    -150916.984
   2.500     -90366.211
   2.600     -34202.902
   2.700       1886.193
   2.800      11706.325
   2.900      -2824.607
   3.000     -35507.137
   3.100     -79572.188
   3.200    -129231.727
   3.300    -178623.109
   3.400    -219490.984
   3.500    -239984.531
   3.600    -226578.047
   3.700    -169463.234
   3.800     -69547.375
   3.900      56414.090
   4.000     176115.984
   4.100     249195.922
   4.200     240652.781
   4.300     135827.469
   4.400     -49069.066
   4.500    -266166.594
   4.600    -447035.750
   4.700    -523323.500
   4.800    -450435.594
   4.900    -225775.922
   5.000     105774.305
   5.100     462329.094
   5.200     748908.188
   5.300     887144.938
   5.400     840629.938
   5.500     626897.188
   5.600     311618.375
   5.700     -13102.298
   5.800    -258753.172
   5.900    -368232.125
   6.000    -331901.094
   6.100    -186766.750
   6.200         55.812
   6.300     156818.734
   6.400     231879.125
   6.500     208869.797
   6.600     107605.430
   6.700     -28269.188
   6.800    -150941.141
   6.900    -227100.578
   7.000    -248416.406
   7.100    -230474.906
   7.200    -201823.047
   7.300    -188712.453
   7.400    -202550.531
   7.500    -235415.422
   7.600    -265186.594
   7.700    -267482.406
   7.800    -228668.781
   7.900    -153833.750
   8.000     -65932.578
   8.100       3700.204
   8.200      29445.801
   8.300       3921.803
   8.400     -56702.594
   8.500    -117303.539
   8.600    -136894.969
   8.700     -85219.789
   8.800      43724.184
   8.900     226702.125
   9.000     417031.781
   9.100     559241.000
   9.200     607345.250
   9.300     540214.938
   9.400     368722.188
   9.500     132457.344
   9.600    -112413.688
   9.700    -309631.688
   9.800    -418067.250
   9.900    -421066.969
  10.000    -327823.313
