SiO2
# 1 - Si, 2 - O  !   2.03.86
Дата и время - 04.07.2013 17:00:57. Длит. расчетов,сек= 0
H(S)
121 1 1 1 0
  1.0000   -101157.1719
  1.0500   -106196.7266
  1.1000   -106318.7031
  1.1500    -88850.2656
  1.2000    -85257.9766
  1.2500    -55320.4023
  1.3000    -23684.0918
  1.3500     13696.1631
  1.4000    389761.0313
  1.4500   1026672.8125
  1.5000   1101357.3750
  1.5500    484126.1875
  1.6000     -1377.6729
  1.6500    -80075.8672
  1.7000   -101029.0547
  1.7500   -148462.9063
  1.8000   -161465.6875
  1.8500   -171203.4844
  1.9000   -175112.2500
  1.9500   -178958.5000
  2.0000   -196020.3281
  2.0500   -205605.9688
  2.1000   -205227.0781
  2.1500   -199031.6719
  2.2000   -193663.8594
  2.2500   -207409.8594
  2.3000   -145659.1563
  2.3500    149248.8750
  2.4000    478162.9688
  2.4500    411133.1563
  2.5000     38205.9414
  2.5500   -194479.5469
  2.6000   -224930.1875
  2.6500   -227323.5156
  2.7000   -231723.7500
  2.7500   -223741.9688
  2.8000   -215078.6875
  2.8500   -151702.1250
  2.9000     30196.4023
  2.9500    177113.6563
  3.0000     72863.5703
  3.0500   -159117.4844
  3.1000   -276032.3438
  3.1500   -291831.2813
  3.2000   -303687.8750
  3.2500   -315772.4688
  3.3000   -318786.5000
  3.3500   -317632.5938
  3.4000   -318178.4063
  3.4500   -316887.8438
  3.5000   -298378.0313
  3.5500   -288167.1875
  3.6000   -174438.6250
  3.6500    337229.6250
  3.7000    987368.6250
  3.7500    976468.4375
  3.8000    319419.0938
  3.8500   -185590.7969
  3.9000   -297145.0313
  3.9500   -300605.2813
  4.0000   -318235.6563
  4.0500   -275365.7813
  4.1000     -1941.2094
  4.1500    420949.2500
  4.2000    511435.8750
  4.2500    133939.7656
  4.3000   -235167.2813
  4.3500   -318144.1250
  4.4000   -293278.8438
  4.4500   -293995.2188
  4.5000   -311291.6563
  4.5500   -348855.9063
  4.6000   -388425.1250
  4.6500   -401214.3438
  4.7000   -304665.4063
  4.7500    136294.5938
  4.8000    814699.2500
  4.8500    968566.8125
  4.9000    419960.6563
  4.9500    229100.7344
  5.0000    940990.0000
  5.0500   1527067.3750
  5.1000   1071317.0000
  5.1500    172333.2656
  5.2000   -289371.1875
  5.2500   -351338.6250
  5.3000   -219592.0000
  5.3500     91694.1563
  5.4000    285599.5000
  5.4500    104338.5625
  5.5000   -221484.9844
  5.5500   -317025.7188
  5.6000   -158525.7656
  5.6500    -37843.1289
  5.7000   -139365.7813
  5.7500   -338862.5313
  5.8000   -445069.8438
  5.8500   -440628.4375
  5.9000   -430229.0313
  5.9500   -423244.5625
  6.0000   -137734.2969
  6.0500    548569.9375
  6.1000    979857.8125
  6.1500    607978.9375
  6.2000    -58289.3633
  6.2500   -342254.6563
  6.3000    -97033.8516
  6.3500    451644.3438
  6.4000    683376.5625
  6.4500    298741.2188
  6.5000   -144391.4063
  6.5500   -241898.1563
  6.6000   -258694.5156
  6.6500   -386774.2188
  6.7000   -470993.8750
  6.7500   -369709.7188
  6.8000   -181001.2344
  6.8500   -114725.3359
  6.9000   -123671.5859
  6.9500    -18362.4434
  7.0000     54781.7617
