SiO2
# 1 - Si, 2 - O  !   2.03.86
Дата и время - 04.07.2013 17:00:57. Длит. расчетов,сек= 0
Inorm(S)
121 3 3 1 0
  1.0000     13682.8750
  1.0500     13350.9482
  1.1000     16859.5156
  1.1500     32891.8906
  1.2000     37438.5469
  1.2500     58757.6875
  1.3000     78798.8047
  1.3500    100038.6875
  1.4000    308867.7500
  1.4500    635589.6250
  1.5000    644996.9375
  1.5500    318958.9688
  1.6000     83363.7266
  1.6500     47386.0742
  1.7000     38707.8203
  1.7500     20181.8281
  1.8000     16367.1143
  1.8500     14048.7080
  1.9000     13936.4111
  1.9500     13833.9639
  2.0000      9490.2188
  2.0500      7782.9375
  2.1000      9128.0000
  2.1500     12002.3389
  2.2000     14404.9893
  2.2500     11627.2656
  2.3000     27961.0293
  2.3500     99228.0078
  2.4000    172978.2500
  2.4500    152738.6250
  2.5000     68033.5547
  2.5500     18411.0293
  2.6000     12700.4639
  2.6500     12787.8018
  2.7000     12479.6953
  2.7500     14411.8408
  2.8000     16312.3545
  2.8500     27247.4609
  2.9000     56641.9805
  2.9500     78597.4688
  3.0000     61012.0781
  3.0500     25764.4082
  3.1000      9061.6689
  3.1500      7302.4141
  3.2000      6172.9165
  3.2500      5074.7603
  3.3000      5177.8384
  3.3500      5772.9297
  3.4000      6130.0210
  3.4500      6671.9634
  3.5000      9090.0986
  3.5500     10471.3545
  3.6000     22624.4453
  3.6500     74668.8672
  3.7000    137547.4531
  3.7500    133205.7969
  3.8000     68415.7734
  3.8500     20915.2969
  3.9000     10873.7451
  3.9500     10706.3936
  4.0000      9347.4111
  4.0500     13020.7080
  4.1000     34972.5469
  4.1500     67493.6953
  4.2000     73071.2266
  4.2500     43578.1523
  4.3000     16090.7490
  4.3500     10156.5674
  4.4000     11944.3320
  4.4500     11917.9346
  4.5000     10793.7373
  4.5500      8408.0049
  4.6000      5998.2656
  4.6500      5338.6719
  4.7000     11286.0811
  4.7500     37250.6680
  4.8000     75766.9063
  4.8500     83048.8672
  4.9000     51234.2500
  4.9500     40061.1445
  5.0000     77107.2578
  5.0500    106104.3203
  5.1000     80999.7266
  5.1500     34818.7266
  5.2000     11780.0342
  5.2500      8752.8594
  5.3000     14922.2217
  5.3500     29111.7891
  5.4000     37459.8789
  5.4500     28870.5625
  5.5000     14308.1787
  5.5500     10097.7119
  5.6000     16679.1211
  5.6500     21463.3613
  5.7000     17090.5391
  5.7500      8976.0361
  5.8000      4775.6509
  5.8500      4959.5767
  5.9000      5358.8618
  5.9500      5612.7983
  6.0000     16011.8740
  6.0500     40440.2031
  6.1000     55075.1055
  6.1500     41350.1328
  6.2000     17990.8613
  6.2500      8217.8350
  6.3000     16265.8047
  6.3500     33960.6211
  6.4000     40937.9648
  6.4500     28200.3574
  6.5000     14010.6416
  6.5500     10847.4727
  6.6000     10214.7578
  6.6500      6276.5444
  6.7000      3737.2434
  6.7500      6646.4023
  6.8000     11974.5352
  6.8500     13700.1338
  6.9000     13280.9258
  6.9500     16010.0117
  7.0000     17793.3457
