//SiO2 1 - Si, 2 - O
//Коэфф. для расчета инт-ий
tetrarx
H(S)
121 1 1 1 0
  1.0000        -0.0684
  1.0500        -0.0643
  1.1000        -0.0595
  1.1500        -0.0559
  1.2000        -0.0391
  1.2500        -0.0209
  1.3000        -0.0077
  1.3500         0.0757
  1.4000         0.2938
  1.4500         0.5264
  1.5000         0.5516
  1.5500         0.3340
  1.6000         0.0753
  1.6500        -0.0506
  1.7000        -0.0671
  1.7500        -0.0733
  1.8000        -0.0944
  1.8500        -0.1072
  1.9000        -0.1115
  1.9500        -0.1184
  2.0000        -0.1236
  2.0500        -0.1223
  2.1000        -0.1208
  2.1500        -0.1257
  2.2000        -0.1335
  2.2500        -0.1194
  2.3000        -0.0430
  2.3500         0.0933
  2.4000         0.1996
  2.4500         0.1792
  2.5000         0.0491
  2.5500        -0.0811
  2.6000        -0.1408
  2.6500        -0.1465
  2.7000        -0.1390
  2.7500        -0.1334
  2.8000        -0.1183
  2.8500        -0.0697
  2.9000         0.0098
  2.9500         0.0612
  3.0000         0.0256
  3.0500        -0.0728
  3.1000        -0.1542
  3.1500        -0.1832
  3.2000        -0.1874
  3.2500        -0.1938
  3.3000        -0.1994
  3.3500        -0.1979
  3.4000        -0.1929
  3.4500        -0.1909
  3.5000        -0.1919
  3.5500        -0.1608
  3.6000        -0.0216
  3.6500         0.2391
  3.7000         0.4695
  3.7500         0.4708
  3.8000         0.2394
  3.8500        -0.0242
  3.9000        -0.1619
  3.9500        -0.1924
  4.0000        -0.1813
  4.0500        -0.1171
  4.1000         0.0232
  4.1500         0.1687
  4.2000         0.1999
  4.2500         0.0860
  4.3000        -0.0774
  4.3500        -0.1783
  4.4000        -0.1984
  4.4500        -0.1937
  4.5000        -0.2027
  4.5500        -0.2182
  4.6000        -0.2283
  4.6500        -0.2143
  4.7000        -0.1068
  4.7500         0.1388
  4.8000         0.3925
  4.8500         0.4485
  4.9000         0.3434
  4.9500         0.3526
  5.0000         0.5679
  5.0500         0.7239
  5.1000         0.5715
  5.1500         0.2069
  5.2000        -0.0900
  5.2500        -0.1740
  5.3000        -0.0945
  5.3500         0.0280
  5.4000         0.0869
  5.4500         0.0326
  5.5000        -0.0824
  5.5500        -0.1424
  5.6000        -0.1064
  5.6500        -0.0605
  5.7000        -0.0934
  5.7500        -0.1819
  5.8000        -0.2498
  5.8500        -0.2761
  5.9000        -0.2734
  5.9500        -0.2004
  6.0000         0.0069
  6.0500         0.2892
  6.1000         0.4411
  6.1500         0.3214
  6.2000         0.0488
  6.2500        -0.1035
  6.3000        -0.0055
  6.3500         0.2003
  6.4000         0.2801
  6.4500         0.1650
  6.5000        -0.0198
  6.5500        -0.1457
  6.6000        -0.2081
  6.6500        -0.2466
  6.7000        -0.2480
  6.7500        -0.1956
  6.8000        -0.1285
  6.8500        -0.0842
  6.9000        -0.0484
  6.9500        -0.0147
  7.0000        -0.0258
