//SiO2 1 - Si, 2 - O
//Коэфф. для расчета инт-ий
tetrarx
H(S)
121 1 1 1 0
  1.0000        -0.0650
  1.0500        -0.0655
  1.1000        -0.0644
  1.1500        -0.0529
  1.2000        -0.0344
  1.2500        -0.0247
  1.3000        -0.0023
  1.3500         0.1041
  1.4000         0.3185
  1.4500         0.5225
  1.5000         0.5440
  1.5500         0.3538
  1.6000         0.1058
  1.6500        -0.0411
  1.7000        -0.0745
  1.7500        -0.0760
  1.8000        -0.0933
  1.8500        -0.1139
  1.9000        -0.1224
  1.9500        -0.1253
  2.0000        -0.1287
  2.0500        -0.1299
  2.1000        -0.1301
  2.1500        -0.1363
  2.2000        -0.1420
  2.2500        -0.1167
  2.3000        -0.0310
  2.3500         0.0955
  2.4000         0.1856
  2.4500         0.1686
  2.5000         0.0551
  2.5500        -0.0718
  2.6000        -0.1422
  2.6500        -0.1549
  2.7000        -0.1490
  2.7500        -0.1448
  2.8000        -0.1257
  2.8500        -0.0708
  2.9000         0.0046
  2.9500         0.0468
  3.0000         0.0141
  3.0500        -0.0739
  3.1000        -0.1551
  3.1500        -0.1928
  3.2000        -0.2010
  3.2500        -0.2059
  3.3000        -0.2119
  3.3500        -0.2117
  3.4000        -0.2065
  3.4500        -0.2056
  3.5000        -0.2029
  3.5500        -0.1535
  3.6000         0.0026
  3.6500         0.2509
  3.7000         0.4525
  3.7500         0.4527
  3.8000         0.2508
  3.8500         0.0023
  3.9000        -0.1533
  3.9500        -0.2022
  4.0000        -0.1851
  4.0500        -0.1068
  4.1000         0.0300
  4.1500         0.1582
  4.2000         0.1831
  4.2500         0.0826
  4.3000        -0.0679
  4.3500        -0.1745
  4.4000        -0.2095
  4.4500        -0.2102
  4.5000        -0.2157
  4.5500        -0.2316
  4.6000        -0.2425
  4.6500        -0.2117
  4.7000        -0.0797
  4.7500         0.1591
  4.8000         0.3810
  4.8500         0.4443
  4.9000         0.3954
  4.9500         0.4283
  5.0000         0.5970
  5.0500         0.7066
  5.1000         0.5665
  5.1500         0.2370
  5.2000        -0.0547
  5.2500        -0.1568
  5.3000        -0.0911
  5.3500         0.0215
  5.4000         0.0695
  5.4500         0.0193
  5.5000        -0.0735
  5.5500        -0.1251
  5.6000        -0.1117
  5.6500        -0.0876
  5.7000        -0.1133
  5.7500        -0.1857
  5.8000        -0.2566
  5.8500        -0.2934
  5.9000        -0.2822
  5.9500        -0.1856
  6.0000         0.0283
  6.0500         0.2873
  6.1000         0.4164
  6.1500         0.3090
  6.2000         0.0736
  6.2500        -0.0603
  6.3000         0.0154
  6.3500         0.1854
  6.4000         0.2587
  6.4500         0.1672
  6.5000        -0.0049
  6.5500        -0.1478
  6.6000        -0.2255
  6.6500        -0.2549
  6.7000        -0.2474
  6.7500        -0.2066
  6.8000        -0.1492
  6.8500        -0.0942
  6.9000        -0.0471
  6.9500        -0.0211
  7.0000        -0.0435
