//SiO2 1 - Si, 2 - O
//Коэфф. для расчета инт-ий
tetrarx
H(S)
121 1 1 1 0
  1.0000        -0.0587
  1.0500        -0.0607
  1.1000        -0.0542
  1.1500        -0.0496
  1.2000        -0.0429
  1.2500        -0.0232
  1.3000        -0.0130
  1.3500         0.0289
  1.4000         0.2346
  1.4500         0.5233
  1.5000         0.5604
  1.5500         0.2822
  1.6000         0.0184
  1.6500        -0.0504
  1.7000        -0.0518
  1.7500        -0.0738
  1.8000        -0.0878
  1.8500        -0.0927
  1.9000        -0.1002
  1.9500        -0.1029
  2.0000        -0.1056
  2.0500        -0.1102
  2.1000        -0.1094
  2.1500        -0.1064
  2.2000        -0.1098
  2.2500        -0.1139
  2.3000        -0.0652
  2.3500         0.0830
  2.4000         0.2270
  2.4500         0.1987
  2.5000         0.0315
  2.5500        -0.0935
  2.6000        -0.1229
  2.6500        -0.1254
  2.7000        -0.1269
  2.7500        -0.1207
  2.8000        -0.1105
  2.8500        -0.0707
  2.9000         0.0160
  2.9500         0.0772
  3.0000         0.0303
  3.0500        -0.0786
  3.1000        -0.1453
  3.1500        -0.1586
  3.2000        -0.1646
  3.2500        -0.1714
  3.3000        -0.1725
  3.3500        -0.1741
  3.4000        -0.1746
  3.4500        -0.1680
  3.5000        -0.1625
  3.5500        -0.1572
  3.6000        -0.0676
  3.6500         0.1987
  3.7000         0.4876
  3.7500         0.4879
  3.8000         0.1958
  3.8500        -0.0730
  3.9000        -0.1573
  3.9500        -0.1609
  4.0000        -0.1696
  4.0500        -0.1355
  4.1000         0.0075
  4.1500         0.1928
  4.2000         0.2366
  4.2500         0.0826
  4.3000        -0.1011
  4.3500        -0.1710
  4.4000        -0.1668
  4.4500        -0.1668
  4.5000        -0.1779
  4.5500        -0.1900
  4.6000        -0.2032
  4.6500        -0.2059
  4.7000        -0.1409
  4.7500         0.0902
  4.8000         0.4065
  4.8500         0.4772
  4.9000         0.2547
  4.9500         0.1977
  5.0000         0.5142
  5.0500         0.7579
  5.1000         0.5559
  5.1500         0.1328
  5.2000        -0.1360
  5.2500        -0.1828
  5.3000        -0.1006
  5.3500         0.0402
  5.4000         0.1230
  5.4500         0.0491
  5.5000        -0.1018
  5.5500        -0.1611
  5.6000        -0.0933
  5.6500        -0.0255
  5.7000        -0.0679
  5.7500        -0.1769
  5.8000        -0.2416
  5.8500        -0.2421
  5.9000        -0.2389
  5.9500        -0.2144
  6.0000        -0.0375
  6.0500         0.2859
  6.1000         0.4732
  6.1500         0.3171
  6.2000        -0.0017
  6.2500        -0.1575
  6.3000        -0.0305
  6.3500         0.2242
  6.4000         0.3214
  6.4500         0.1615
  6.5000        -0.0514
  6.5500        -0.1397
  6.6000        -0.1665
  6.6500        -0.2173
  6.7000        -0.2411
  6.7500        -0.1824
  6.8000        -0.0989
  6.8500        -0.0684
  6.9000        -0.0594
  6.9500        -0.0125
  7.0000         0.0100
